#"Position [0.0  1.0, 0.0] (m)-point 2 (m)","Mixture Fraction-point 2"
0.000000e+00 5.763238e-01 
9.450756e-01 5.109488e-01 
1.890151e+00 3.736371e-01 
2.835227e+00 2.299175e-01 
3.780302e+00 1.194419e-01 
4.725378e+00 5.710441e-02 
5.670454e+00 2.800008e-02 
6.615529e+00 7.862005e-03 
7.560605e+00 1.622776e-04 
8.505681e+00 7.897682e-06 
9.450756e+00 3.220506e-06 
1.039583e+01 1.371872e-06 
1.134091e+01 2.331432e-07 
1.228598e+01 8.976253e-08 
1.323106e+01 3.255654e-08 
1.417613e+01 1.097664e-08 
1.512121e+01 3.368130e-09 
1.606629e+01 9.045977e-10 
1.701136e+01 1.356769e-10 
1.795644e+01 1.356769e-10 
