#"Position [0.0  1.0, 0.0] (m)-point 3 (m)","Mixture Fraction-point 3"
0.000000e+00 3.170767e-01 
9.450756e-01 2.998027e-01 
1.890151e+00 2.570035e-01 
2.835227e+00 2.015985e-01 
3.780302e+00 1.589527e-01 
4.725378e+00 1.133366e-01 
5.670454e+00 7.013264e-02 
6.615529e+00 4.536085e-02 
7.560605e+00 2.513894e-02 
8.505681e+00 1.687154e-02 
9.450756e+00 3.695545e-03 
1.039583e+01 5.926098e-04 
1.134091e+01 1.636415e-05 
1.228598e+01 5.243966e-06 
1.323106e+01 1.795320e-06 
1.417613e+01 5.858047e-07 
1.512121e+01 1.724116e-07 
1.606629e+01 4.310685e-08 
1.701136e+01 5.588595e-09 
1.795644e+01 5.588595e-09 
